%Al2O3 dielectric function measured via Ellipsometry @ IM2NP (D. Grosso)
%Energy (eV)	n	k
1.240	1.594	0.000
1.242	1.594	0.000
1.244	1.594	0.000
1.246	1.594	0.000
1.248	1.594	0.000
1.250	1.594	0.000
1.252	1.594	0.000
1.254	1.594	0.000
1.256	1.594	0.000
1.258	1.594	0.000
1.260	1.594	0.000
1.262	1.594	0.000
1.264	1.594	0.000
1.266	1.594	0.000
1.268	1.594	0.000
1.270	1.594	0.000
1.272	1.594	0.000
1.274	1.594	0.000
1.276	1.594	0.000
1.278	1.595	0.000
1.280	1.595	0.000
1.282	1.595	0.000
1.284	1.595	0.000
1.287	1.595	0.000
1.289	1.595	0.000
1.291	1.595	0.000
1.293	1.595	0.000
1.295	1.595	0.000
1.297	1.595	0.000
1.299	1.595	0.000
1.301	1.595	0.000
1.304	1.595	0.000
1.306	1.595	0.000
1.308	1.595	0.000
1.310	1.595	0.000
1.312	1.595	0.000
1.314	1.595	0.000
1.317	1.595	0.000
1.319	1.595	0.000
1.321	1.595	0.000
1.323	1.595	0.000
1.326	1.595	0.000
1.328	1.595	0.000
1.330	1.595	0.000
1.332	1.595	0.000
1.334	1.595	0.000
1.337	1.595	0.000
1.339	1.595	0.000
1.341	1.595	0.000
1.344	1.595	0.000
1.346	1.595	0.000
1.348	1.595	0.000
1.351	1.596	0.000
1.353	1.596	0.000
1.355	1.596	0.000
1.358	1.596	0.000
1.360	1.596	0.000
1.362	1.596	0.000
1.365	1.596	0.000
1.367	1.596	0.000
1.369	1.596	0.000
1.372	1.596	0.000
1.374	1.596	0.000
1.377	1.596	0.000
1.379	1.596	0.000
1.381	1.596	0.000
1.384	1.596	0.000
1.386	1.596	0.000
1.389	1.596	0.000
1.391	1.596	0.000
1.394	1.596	0.000
1.396	1.596	0.000
1.399	1.596	0.000
1.401	1.596	0.000
1.404	1.596	0.000
1.406	1.596	0.000
1.409	1.596	0.000
1.411	1.596	0.000
1.414	1.596	0.000
1.416	1.596	0.000
1.419	1.596	0.000
1.421	1.597	0.000
1.424	1.597	0.000
1.426	1.597	0.000
1.429	1.597	0.000
1.432	1.597	0.000
1.434	1.597	0.000
1.437	1.597	0.000
1.440	1.597	0.000
1.442	1.597	0.000
1.445	1.597	0.000
1.448	1.597	0.000
1.450	1.597	0.000
1.453	1.597	0.000
1.456	1.597	0.000
1.458	1.597	0.000
1.461	1.597	0.000
1.464	1.597	0.000
1.466	1.597	0.000
1.469	1.597	0.000
1.472	1.597	0.000
1.475	1.597	0.000
1.477	1.597	0.000
1.480	1.597	0.000
1.483	1.597	0.000
1.486	1.597	0.000
1.489	1.598	0.000
1.492	1.598	0.000
1.494	1.598	0.000
1.497	1.598	0.000
1.500	1.598	0.000
1.503	1.598	0.000
1.506	1.598	0.000
1.509	1.598	0.000
1.512	1.598	0.000
1.515	1.598	0.000
1.517	1.598	0.000
1.520	1.598	0.000
1.523	1.598	0.000
1.526	1.598	0.000
1.529	1.598	0.000
1.532	1.598	0.000
1.535	1.598	0.000
1.538	1.598	0.000
1.541	1.598	0.000
1.544	1.598	0.000
1.547	1.598	0.000
1.551	1.598	0.000
1.554	1.599	0.000
1.557	1.599	0.000
1.560	1.599	0.000
1.563	1.599	0.000
1.566	1.599	0.000
1.569	1.599	0.000
1.572	1.599	0.000
1.575	1.599	0.000
1.579	1.599	0.000
1.582	1.599	0.000
1.585	1.599	0.000
1.588	1.599	0.000
1.591	1.599	0.000
1.595	1.599	0.000
1.598	1.599	0.000
1.601	1.599	0.000
1.604	1.599	0.000
1.608	1.599	0.000
1.611	1.599	0.000
1.614	1.600	0.000
1.618	1.600	0.000
1.621	1.600	0.000
1.624	1.600	0.000
1.628	1.600	0.000
1.631	1.600	0.000
1.635	1.600	0.000
1.638	1.600	0.000
1.641	1.600	0.000
1.645	1.600	0.000
1.648	1.600	0.000
1.652	1.600	0.000
1.655	1.600	0.000
1.659	1.600	0.000
1.662	1.600	0.000
1.666	1.600	0.000
1.669	1.600	0.000
1.673	1.601	0.000
1.677	1.601	0.000
1.680	1.601	0.000
1.684	1.601	0.000
1.687	1.601	0.000
1.691	1.601	0.000
1.695	1.601	0.000
1.698	1.601	0.000
1.702	1.601	0.000
1.706	1.601	0.000
1.710	1.601	0.000
1.713	1.601	0.000
1.717	1.601	0.000
1.721	1.601	0.000
1.725	1.601	0.000
1.728	1.601	0.000
1.732	1.602	0.000
1.736	1.602	0.000
1.740	1.602	0.000
1.744	1.602	0.000
1.748	1.602	0.000
1.752	1.602	0.000
1.756	1.602	0.000
1.760	1.602	0.000
1.764	1.602	0.000
1.768	1.602	0.000
1.772	1.602	0.000
1.776	1.602	0.000
1.780	1.602	0.000
1.784	1.602	0.000
1.788	1.603	0.000
1.792	1.603	0.000
1.796	1.603	0.000
1.800	1.603	0.000
1.804	1.603	0.000
1.808	1.603	0.000
1.813	1.603	0.000
1.817	1.603	0.000
1.821	1.603	0.000
1.825	1.603	0.000
1.830	1.603	0.000
1.834	1.603	0.000
1.838	1.604	0.000
1.842	1.604	0.000
1.847	1.604	0.000
1.851	1.604	0.000
1.856	1.604	0.000
1.860	1.604	0.000
1.864	1.604	0.000
1.869	1.604	0.000
1.873	1.604	0.000
1.878	1.604	0.000
1.882	1.604	0.000
1.887	1.604	0.000
1.891	1.605	0.000
1.896	1.605	0.000
1.901	1.605	0.000
1.905	1.605	0.000
1.910	1.605	0.000
1.915	1.605	0.000
1.919	1.605	0.000
1.924	1.605	0.000
1.929	1.605	0.000
1.934	1.605	0.000
1.938	1.605	0.000
1.943	1.606	0.000
1.948	1.606	0.000
1.953	1.606	0.000
1.958	1.606	0.000
1.963	1.606	0.000
1.968	1.606	0.000
1.973	1.606	0.000
1.978	1.606	0.000
1.983	1.606	0.000
1.988	1.606	0.000
1.993	1.607	0.000
1.998	1.607	0.000
2.003	1.607	0.000
2.008	1.607	0.000
2.013	1.607	0.000
2.018	1.607	0.000
2.024	1.607	0.000
2.029	1.607	0.000
2.034	1.607	0.000
2.040	1.608	0.000
2.045	1.608	0.000
2.050	1.608	0.000
2.056	1.608	0.000
2.061	1.608	0.000
2.066	1.608	0.000
2.072	1.608	0.000
2.077	1.608	0.000
2.083	1.608	0.000
2.089	1.609	0.000
2.094	1.609	0.000
2.100	1.609	0.000
2.105	1.609	0.000
2.111	1.609	0.000
2.117	1.609	0.000
2.123	1.609	0.000
2.128	1.609	0.000
2.134	1.610	0.000
2.140	1.610	0.000
2.146	1.610	0.000
2.152	1.610	0.000
2.158	1.610	0.000
2.164	1.610	0.000
2.170	1.610	0.000
2.176	1.610	0.000
2.182	1.611	0.000
2.188	1.611	0.000
2.194	1.611	0.000
2.200	1.611	0.000
2.206	1.611	0.000
2.213	1.611	0.000
2.219	1.611	0.000
2.225	1.612	0.000
2.232	1.612	0.000
2.238	1.612	0.000
2.244	1.612	0.000
2.251	1.612	0.000
2.257	1.612	0.000
2.264	1.613	0.000
2.271	1.613	0.000
2.277	1.613	0.000
2.284	1.613	0.000
2.291	1.613	0.000
2.297	1.613	0.000
2.304	1.613	0.000
2.311	1.614	0.000
2.318	1.614	0.000
2.325	1.614	0.000
2.331	1.614	0.000
2.338	1.614	0.000
2.345	1.614	0.000
2.353	1.615	0.000
2.360	1.615	0.000
2.367	1.615	0.000
2.374	1.615	0.000
2.381	1.615	0.000
2.388	1.615	0.000
2.396	1.616	0.000
2.403	1.616	0.000
2.411	1.616	0.000
2.418	1.616	0.000
2.426	1.616	0.000
2.433	1.617	0.000
2.441	1.617	0.000
2.448	1.617	0.000
2.456	1.617	0.000
2.464	1.617	0.000
2.472	1.618	0.000
2.479	1.618	0.000
2.487	1.618	0.000
2.495	1.618	0.000
2.503	1.618	0.000
2.511	1.619	0.000
2.519	1.619	0.000
2.527	1.619	0.000
2.536	1.619	0.000
2.544	1.619	0.000
2.552	1.620	0.000
2.561	1.620	0.000
2.569	1.620	0.000
2.577	1.620	0.000
2.586	1.621	0.000
2.594	1.621	0.000
2.603	1.621	0.000
2.612	1.621	0.000
2.621	1.621	0.000
2.629	1.622	0.000
2.638	1.622	0.000
2.647	1.622	0.000
2.656	1.622	0.000
2.665	1.623	0.000
2.674	1.623	0.000
2.683	1.623	0.000
2.693	1.623	0.000
2.702	1.624	0.000
2.711	1.624	0.000
2.721	1.624	0.000
2.730	1.625	0.000
2.740	1.625	0.000
2.749	1.625	0.000
2.759	1.625	0.000
2.769	1.626	0.000
2.779	1.626	0.000
2.789	1.626	0.000
2.799	1.626	0.000
2.809	1.627	0.000
2.819	1.627	0.000
2.829	1.627	0.000
2.839	1.628	0.000
2.850	1.628	0.000
2.860	1.628	0.000
2.870	1.629	0.000
2.881	1.629	0.000
2.892	1.629	0.000
2.902	1.630	0.000
2.913	1.630	0.000
2.924	1.630	0.000
2.935	1.630	0.000
2.946	1.631	0.000
2.957	1.631	0.000
2.968	1.632	0.000
2.980	1.632	0.000
2.991	1.632	0.000
3.003	1.633	0.000
3.014	1.633	0.000
3.026	1.633	0.000
3.037	1.634	0.000
3.049	1.634	0.000
3.061	1.634	0.000
3.073	1.635	0.000
3.085	1.635	0.000
3.098	1.636	0.000
3.110	1.636	0.000
3.122	1.636	0.000
3.135	1.637	0.000
3.147	1.637	0.000
3.160	1.638	0.000
3.173	1.638	0.000
3.186	1.638	0.000
3.199	1.639	0.000
3.212	1.639	0.000
3.225	1.640	0.000
3.238	1.640	0.000
3.252	1.641	0.000
3.265	1.641	0.000
3.279	1.642	0.000
3.293	1.642	0.000
3.307	1.642	0.000
3.321	1.643	0.000
3.335	1.643	0.000
3.349	1.644	0.000